Time [s] - Voltage Resistor	Voltage [V] - Voltage Resistor	Time [s] - Voltage Source	Voltage [V] - Voltage Source
0	1	0	3.6
7.69E-05	0.9	7.69E-05	3.5
0.000154	0.7	0.000154	3.4
0.000231	0.6	0.000231	3.3
0.000308	0.4	0.000308	3.1
0.000385	0.3	0.000385	3
0.000462	0.2	0.000462	2.9
0.000538	0	0.000538	2.7
0.000615	-0.1	0.000615	2.6
0.000692	-0.3	0.000692	2.4
0.000769	-0.4	0.000769	2.3
0.000846	-0.5	0.000846	2.1
0.000923	-0.7	0.000923	1.9
0.001	-0.8	0.001	1.7
0.001077	-0.9	0.001077	1.6
0.001154	-1	0.001154	1.4
0.001231	-1.2	0.001231	1.2
0.001308	-1.3	0.001308	1
0.001385	-1.4	0.001385	0.8
0.001461	-1.5	0.001461	0.6
0.001538	-1.6	0.001538	0.4
0.001615	-1.7	0.001615	0.2
0.001692	-1.8	0.001692	0
0.001769	-1.9	0.001769	-0.2
0.001846	-2	0.001846	-0.4
0.001923	-2.1	0.001923	-0.6
0.002	-2.2	0.002	-0.8
0.002077	-2.3	0.002077	-0.9
0.002154	-2.4	0.002154	-1.1
0.002231	-2.5	0.002231	-1.3
0.002308	-2.6	0.002308	-1.5
0.002385	-2.6	0.002385	-1.7
0.002461	-2.7	0.002461	-1.9
0.002538	-2.8	0.002538	-2
0.002615	-2.8	0.002615	-2.2
0.002692	-2.9	0.002692	-2.4
0.002769	-2.9	0.002769	-2.5
0.002846	-2.9	0.002846	-2.7
0.002923	-3	0.002923	-2.8
0.003	-3	0.003	-2.9
0.003077	-3	0.003077	-3.1
0.003154	-3	0.003154	-3.2
0.003231	-3	0.003231	-3.3
0.003308	-3	0.003308	-3.4
0.003384	-2.9	0.003384	-3.5
0.003461	-2.9	0.003461	-3.6
0.003538	-2.9	0.003538	-3.7
0.003615	-2.8	0.003615	-3.7
0.003692	-2.8	0.003692	-3.8
0.003769	-2.7	0.003769	-3.8
0.003846	-2.6	0.003846	-3.9
0.003923	-2.6	0.003923	-3.9
0.004	-2.5	0.004	-4
0.004077	-2.4	0.004077	-4
0.004154	-2.3	0.004154	-4
0.004231	-2.2	0.004231	-4
0.004308	-2.1	0.004308	-4
0.004384	-2	0.004384	-3.9
0.004461	-1.9	0.004461	-3.9
0.004538	-1.8	0.004538	-3.8
0.004615	-1.6	0.004615	-3.8
0.004692	-1.5	0.004692	-3.7
0.004769	-1.4	0.004769	-3.7
0.004846	-1.2	0.004846	-3.6
0.004923	-1.1	0.004923	-3.5
0.005	-0.9	0.005	-3.4
0.005077	-0.8	0.005077	-3.3
0.005154	-0.6	0.005154	-3.2
0.005231	-0.5	0.005231	-3.1
0.005307	-0.4	0.005307	-2.9
0.005384	-0.2	0.005384	-2.8
0.005461	-0.1	0.005461	-2.7
0.005538	0.1	0.005538	-2.5
0.005615	0.2	0.005615	-2.4
0.005692	0.3	0.005692	-2.2
0.005769	0.5	0.005769	-2
0.005846	0.6	0.005846	-1.9
0.005923	0.7	0.005923	-1.7
0.006	0.9	0.006	-1.5
0.006077	1	0.006077	-1.3
0.006154	1.1	0.006154	-1.1
0.006231	1.2	0.006231	-1
0.006307	1.3	0.006307	-0.8
0.006384	1.5	0.006384	-0.6
0.006461	1.6	0.006461	-0.4
0.006538	1.7	0.006538	-0.2
0.006615	1.8	0.006615	0
0.006692	1.9	0.006692	0.2
0.006769	2	0.006769	0.4
0.006846	2.1	0.006846	0.6
0.006923	2.2	0.006923	0.8
0.007	2.3	0.007	1
0.007077	2.4	0.007077	1.2
0.007154	2.5	0.007154	1.4
0.00723	2.5	0.00723	1.5
0.007307	2.6	0.007307	1.7
0.007384	2.7	0.007384	1.9
0.007461	2.7	0.007461	2.1
0.007538	2.8	0.007538	2.2
0.007615	2.9	0.007615	2.4
0.007692	2.9	0.007692	2.6
0.007769	2.9	0.007769	2.7
0.007846	3	0.007846	2.9
0.007923	3	0.007923	3
0.008	3	0.008	3.1
0.008077	3	0.008077	3.3
0.008154	3	0.008154	3.4
0.00823	3	0.00823	3.5
0.008307	2.9	0.008307	3.6
0.008384	2.9	0.008384	3.7
0.008461	2.9	0.008461	3.8
0.008538	2.8	0.008538	3.8
0.008615	2.8	0.008615	3.9
0.008692	2.7	0.008692	4
0.008769	2.7	0.008769	4
0.008846	2.6	0.008846	4.1
0.008923	2.6	0.008923	4.1
0.009	2.5	0.009	4.1
0.009077	2.4	0.009077	4.1
0.009153	2.3	0.009153	4.1
0.00923	2.2	0.00923	4.1
0.009307	2.1	0.009307	4.1
0.009384	2	0.009384	4.1
0.009461	1.8	0.009461	4
0.009538	1.7	0.009538	4
0.009615	1.6	0.009615	3.9
0.009692	1.4	0.009692	3.8
0.009769	1.3	0.009769	3.8
0.009846	1.2	0.009846	3.7
0.009923	1	0.009923	3.6
0.01	0.9	0.01	3.5
0.010077	0.7	0.010077	3.4
0.010153	0.6	0.010153	3.3
0.01023	0.4	0.01023	3.1
0.010307	0.3	0.010307	3
0.010384	0.1	0.010384	2.9
0.010461	0	0.010461	2.7
0.010538	-0.1	0.010538	2.6
0.010615	-0.3	0.010615	2.4
0.010692	-0.4	0.010692	2.2
0.010769	-0.5	0.010769	2.1
0.010846	-0.7	0.010846	1.9
0.010923	-0.8	0.010923	1.7
0.011	-0.9	0.011	1.5
0.011076	-1	0.011076	1.4
0.011153	-1.2	0.011153	1.2
0.01123	-1.3	0.01123	1
0.011307	-1.4	0.011307	0.8
0.011384	-1.5	0.011384	0.6
0.011461	-1.6	0.011461	0.4
0.011538	-1.7	0.011538	0.2
0.011615	-1.8	0.011615	0
0.011692	-1.9	0.011692	-0.2
0.011769	-2	0.011769	-0.4
0.011846	-2.1	0.011846	-0.6
0.011923	-2.2	0.011923	-0.8
0.012	-2.3	0.012	-1
0.012076	-2.4	0.012076	-1.1
0.012153	-2.5	0.012153	-1.3
0.01223	-2.6	0.01223	-1.5
0.012307	-2.6	0.012307	-1.7
0.012384	-2.7	0.012384	-1.9
0.012461	-2.8	0.012461	-2
0.012538	-2.8	0.012538	-2.2
0.012615	-2.9	0.012615	-2.4
0.012692	-2.9	0.012692	-2.5
0.012769	-2.9	0.012769	-2.7
0.012846	-3	0.012846	-2.8
0.012923	-3	0.012923	-2.9
0.012999	-3	0.012999	-3.1
0.013076	-3	0.013076	-3.2
0.013153	-3	0.013153	-3.3
0.01323	-3	0.01323	-3.4
0.013307	-2.9	0.013307	-3.5
0.013384	-2.9	0.013384	-3.6
0.013461	-2.9	0.013461	-3.7
0.013538	-2.8	0.013538	-3.7
0.013615	-2.8	0.013615	-3.8
0.013692	-2.7	0.013692	-3.9
0.013769	-2.6	0.013769	-3.9
0.013846	-2.6	0.013846	-3.9
0.013923	-2.5	0.013923	-4
0.013999	-2.4	0.013999	-4
0.014076	-2.3	0.014076	-4
0.014153	-2.2	0.014153	-4
0.01423	-2.1	0.01423	-4
0.014307	-2	0.014307	-3.9
0.014384	-1.9	0.014384	-3.9
0.014461	-1.7	0.014461	-3.8
0.014538	-1.6	0.014538	-3.8
0.014615	-1.5	0.014615	-3.7
0.014692	-1.3	0.014692	-3.7
0.014769	-1.2	0.014769	-3.6
0.014846	-1.1	0.014846	-3.5
0.014922	-0.9	0.014922	-3.4
0.014999	-0.8	0.014999	-3.3
0.015076	-0.6	0.015076	-3.2
0.015153	-0.5	0.015153	-3.1
0.01523	-0.3	0.01523	-2.9
0.015307	-0.2	0.015307	-2.8
0.015384	-0.1	0.015384	-2.6
0.015461	0.1	0.015461	-2.5
0.015538	0.2	0.015538	-2.3
0.015615	0.4	0.015615	-2.2
0.015692	0.5	0.015692	-2
0.015769	0.6	0.015769	-1.8
0.015846	0.7	0.015846	-1.7
0.015922	0.9	0.015922	-1.5
0.015999	1	0.015999	-1.3
0.016076	1.1	0.016076	-1.1
0.016153	1.2	0.016153	-0.9
0.01623	1.4	0.01623	-0.7
0.016307	1.5	0.016307	-0.6
0.016384	1.6	0.016384	-0.4
0.016461	1.7	0.016461	-0.2
0.016538	1.8	0.016538	0
0.016615	1.9	0.016615	0.2
0.016692	2	0.016692	0.4
0.016769	2.1	0.016769	0.6
0.016845	2.2	0.016845	0.8
0.016922	2.3	0.016922	1
0.016999	2.4	0.016999	1.2
0.017076	2.5	0.017076	1.4
0.017153	2.5	0.017153	1.6
0.01723	2.6	0.01723	1.7
0.017307	2.7	0.017307	1.9
0.017384	2.7	0.017384	2.1
0.017461	2.8	0.017461	2.3
0.017538	2.9	0.017538	2.4
0.017615	2.9	0.017615	2.6
0.017692	2.9	0.017692	2.7
0.017769	3	0.017769	2.9
0.017845	3	0.017845	3
0.017922	3	0.017922	3.1
0.017999	3	0.017999	3.3
0.018076	3	0.018076	3.4
0.018153	2.9	0.018153	3.5
0.01823	2.9	0.01823	3.6
0.018307	2.9	0.018307	3.7
0.018384	2.9	0.018384	3.8
0.018461	2.8	0.018461	3.8
0.018538	2.8	0.018538	3.9
0.018615	2.7	0.018615	4
0.018692	2.7	0.018692	4
0.018768	2.6	0.018768	4.1
0.018845	2.5	0.018845	4.1
0.018922	2.5	0.018922	4.1
0.018999	2.4	0.018999	4.1
0.019076	2.3	0.019076	4.1
0.019153	2.2	0.019153	4.1
0.01923	2.1	0.01923	4.1
0.019307	1.9	0.019307	4
0.019384	1.8	0.019384	4
0.019461	1.7	0.019461	4
0.019538	1.6	0.019538	3.9
0.019615	1.4	0.019615	3.8
0.019692	1.3	0.019692	3.7
0.019768	1.1	0.019768	3.7
0.019845	1	0.019845	3.6
0.019922	0.9	0.019922	3.5
0.019999	0.7	0.019999	3.4
0.020076	0.6	0.020076	3.2
0.020153	0.4	0.020153	3.1
0.02023	0.3	0.02023	3
0.020307	0.1	0.020307	2.8
0.020384	0	0.020384	2.7
0.020461	-0.2	0.020461	2.5
0.020538	-0.3	0.020538	2.4
0.020615	-0.4	0.020615	2.2
0.020691	-0.6	0.020691	2.1
0.020768	-0.7	0.020768	1.9
0.020845	-0.8	0.020845	1.7
0.020922	-0.9	0.020922	1.5
0.020999	-1.1	0.020999	1.3
0.021076	-1.2	0.021076	1.2
0.021153	-1.3	0.021153	1
0.02123	-1.4	0.02123	0.8
0.021307	-1.5	0.021307	0.6
0.021384	-1.6	0.021384	0.4
0.021461	-1.7	0.021461	0.2
0.021538	-1.8	0.021538	0
0.021615	-2	0.021615	-0.2
0.021691	-2.1	0.021691	-0.4
0.021768	-2.1	0.021768	-0.6
0.021845	-2.2	0.021845	-0.8
0.021922	-2.3	0.021922	-1
0.021999	-2.4	0.021999	-1.2
0.022076	-2.5	0.022076	-1.4
0.022153	-2.6	0.022153	-1.5
0.02223	-2.6	0.02223	-1.7
0.022307	-2.7	0.022307	-1.9
0.022384	-2.8	0.022384	-2.1
0.022461	-2.8	0.022461	-2.2
0.022538	-2.9	0.022538	-2.4
0.022614	-2.9	0.022614	-2.5
0.022691	-2.9	0.022691	-2.7
0.022768	-3	0.022768	-2.8
0.022845	-3	0.022845	-3
0.022922	-3	0.022922	-3.1
0.022999	-3	0.022999	-3.2
0.023076	-3	0.023076	-3.3
0.023153	-3	0.023153	-3.4
0.02323	-2.9	0.02323	-3.5
0.023307	-2.9	0.023307	-3.6
0.023384	-2.9	0.023384	-3.7
0.023461	-2.8	0.023461	-3.7
0.023538	-2.8	0.023538	-3.8
0.023614	-2.7	0.023614	-3.9
0.023691	-2.6	0.023691	-3.9
0.023768	-2.6	0.023768	-3.9
0.023845	-2.5	0.023845	-4
0.023922	-2.4	0.023922	-4
0.023999	-2.3	0.023999	-4
0.024076	-2.2	0.024076	-4
0.024153	-2.1	0.024153	-4
0.02423	-2	0.02423	-3.9
0.024307	-1.9	0.024307	-3.9
0.024384	-1.7	0.024384	-3.8
0.024461	-1.6	0.024461	-3.8
0.024537	-1.5	0.024537	-3.7
0.024614	-1.3	0.024614	-3.6
0.024691	-1.2	0.024691	-3.6
0.024768	-1.1	0.024768	-3.5
0.024845	-0.9	0.024845	-3.4
0.024922	-0.8	0.024922	-3.3
0.024999	-0.6	0.024999	-3.2
0.025076	-0.5	0.025076	-3
0.025153	-0.3	0.025153	-2.9
0.02523	-0.2	0.02523	-2.8
0.025307	0	0.025307	-2.6
0.025384	0.1	0.025384	-2.5
0.025461	0.2	0.025461	-2.3
0.025537	0.4	0.025537	-2.2
0.025614	0.5	0.025614	-2
0.025691	0.6	0.025691	-1.8
0.025768	0.8	0.025768	-1.7
0.025845	0.9	0.025845	-1.5
0.025922	1	0.025922	-1.3
0.025999	1.1	0.025999	-1.1
0.026076	1.2	0.026076	-0.9
0.026153	1.4	0.026153	-0.7
0.02623	1.5	0.02623	-0.5
0.026307	1.6	0.026307	-0.3
0.026384	1.7	0.026384	-0.1
0.02646	1.8	0.02646	0
0.026537	1.9	0.026537	0.2
0.026614	2	0.026614	0.4
0.026691	2.1	0.026691	0.6
0.026768	2.2	0.026768	0.8
0.026845	2.3	0.026845	1
0.026922	2.4	0.026922	1.2
0.026999	2.5	0.026999	1.4
0.027076	2.5	0.027076	1.6
0.027153	2.6	0.027153	1.8
0.02723	2.7	0.02723	1.9
0.027307	2.8	0.027307	2.1
0.027384	2.8	0.027384	2.3
0.02746	2.9	0.02746	2.4
0.027537	2.9	0.027537	2.6
0.027614	2.9	0.027614	2.7
0.027691	3	0.027691	2.9
0.027768	3	0.027768	3
0.027845	3	0.027845	3.2
0.027922	3	0.027922	3.3
0.027999	3	0.027999	3.4
0.028076	2.9	0.028076	3.5
0.028153	2.9	0.028153	3.6
0.02823	2.9	0.02823	3.7
0.028307	2.9	0.028307	3.8
0.028383	2.8	0.028383	3.8
0.02846	2.8	0.02846	3.9
0.028537	2.7	0.028537	4
0.028614	2.7	0.028614	4
0.028691	2.6	0.028691	4.1
0.028768	2.5	0.028768	4.1
0.028845	2.5	0.028845	4.1
0.028922	2.4	0.028922	4.1
0.028999	2.3	0.028999	4.1
0.029076	2.2	0.029076	4.1
0.029153	2	0.029153	4.1
0.02923	1.9	0.02923	4
0.029307	1.8	0.029307	4
0.029383	1.7	0.029383	3.9
0.02946	1.5	0.02946	3.9
0.029537	1.4	0.029537	3.8
0.029614	1.3	0.029614	3.7
0.029691	1.1	0.029691	3.7
0.029768	1	0.029768	3.6
0.029845	0.8	0.029845	3.5
0.029922	0.7	0.029922	3.3
0.029999	0.6	0.029999	3.2
0.030076	0.4	0.030076	3.1
0.030153	0.3	0.030153	3
0.03023	0.1	0.03023	2.8
0.030306	0	0.030306	2.7
0.030383	-0.2	0.030383	2.5
0.03046	-0.3	0.03046	2.4
0.030537	-0.4	0.030537	2.2
0.030614	-0.6	0.030614	2
0.030691	-0.7	0.030691	1.9
0.030768	-0.8	0.030768	1.7
0.030845	-1	0.030845	1.5
0.030922	-1.1	0.030922	1.3
0.030999	-1.2	0.030999	1.1
0.031076	-1.3	0.031076	0.9
0.031153	-1.4	0.031153	0.8
0.03123	-1.5	0.03123	0.6
0.031306	-1.6	0.031306	0.4
0.031383	-1.8	0.031383	0.2
0.03146	-1.9	0.03146	0
0.031537	-2	0.031537	-0.2
0.031614	-2.1	0.031614	-0.4
0.031691	-2.2	0.031691	-0.6
0.031768	-2.2	0.031768	-0.8
0.031845	-2.3	0.031845	-1
0.031922	-2.4	0.031922	-1.2
0.031999	-2.5	0.031999	-1.4
0.032076	-2.6	0.032076	-1.6
0.032153	-2.7	0.032153	-1.7
0.032229	-2.7	0.032229	-1.9
0.032306	-2.8	0.032306	-2.1
0.032383	-2.8	0.032383	-2.2
0.03246	-2.9	0.03246	-2.4
0.032537	-2.9	0.032537	-2.5
0.032614	-2.9	0.032614	-2.7
0.032691	-3	0.032691	-2.8
0.032768	-3	0.032768	-3
0.032845	-3	0.032845	-3.1
0.032922	-3	0.032922	-3.2
0.032999	-3	0.032999	-3.3
0.033076	-3	0.033076	-3.4
0.033153	-2.9	0.033153	-3.5
0.033229	-2.9	0.033229	-3.6
0.033306	-2.8	0.033306	-3.7
0.033383	-2.8	0.033383	-3.7
0.03346	-2.8	0.03346	-3.8
0.033537	-2.7	0.033537	-3.9
0.033614	-2.6	0.033614	-3.9
0.033691	-2.6	0.033691	-3.9
0.033768	-2.5	0.033768	-4
0.033845	-2.4	0.033845	-4
0.033922	-2.3	0.033922	-4
0.033999	-2.2	0.033999	-4
0.034076	-2.1	0.034076	-3.9
0.034152	-2	0.034152	-3.9
0.034229	-1.8	0.034229	-3.9
0.034306	-1.7	0.034306	-3.8
0.034383	-1.6	0.034383	-3.8
0.03446	-1.5	0.03446	-3.7
0.034537	-1.3	0.034537	-3.6
0.034614	-1.2	0.034614	-3.6
0.034691	-1	0.034691	-3.5
0.034768	-0.9	0.034768	-3.4
0.034845	-0.8	0.034845	-3.3
0.034922	-0.6	0.034922	-3.1
0.034999	-0.5	0.034999	-3
0.035076	-0.3	0.035076	-2.9
0.035152	-0.2	0.035152	-2.8
0.035229	0	0.035229	-2.6
0.035306	0.1	0.035306	-2.5
0.035383	0.2	0.035383	-2.3
0.03546	0.4	0.03546	-2.2
0.035537	0.5	0.035537	-2
0.035614	0.6	0.035614	-1.8
0.035691	0.8	0.035691	-1.6
0.035768	0.9	0.035768	-1.5
0.035845	1	0.035845	-1.3
0.035922	1.1	0.035922	-1.1
0.035999	1.3	0.035999	-0.9
0.036075	1.4	0.036075	-0.7
0.036152	1.5	0.036152	-0.5
0.036229	1.6	0.036229	-0.3
0.036306	1.7	0.036306	-0.1
0.036383	1.8	0.036383	0.1
0.03646	1.9	0.03646	0.3
0.036537	2	0.036537	0.5
0.036614	2.1	0.036614	0.7
0.036691	2.2	0.036691	0.8
0.036768	2.3	0.036768	1
0.036845	2.4	0.036845	1.2
0.036922	2.5	0.036922	1.4
0.036999	2.6	0.036999	1.6
0.037075	2.6	0.037075	1.8
0.037152	2.7	0.037152	2
0.037229	2.8	0.037229	2.1
0.037306	2.8	0.037306	2.3
0.037383	2.9	0.037383	2.5
0.03746	2.9	0.03746	2.6
0.037537	2.9	0.037537	2.8
0.037614	3	0.037614	2.9
0.037691	3	0.037691	3
0.037768	3	0.037768	3.2
0.037845	3	0.037845	3.3
0.037922	3	0.037922	3.4
0.037998	2.9	0.037998	3.5
0.038075	2.9	0.038075	3.6
0.038152	2.9	0.038152	3.7
0.038229	2.9	0.038229	3.8
0.038306	2.8	0.038306	3.9
0.038383	2.8	0.038383	3.9
0.03846	2.7	0.03846	4
0.038537	2.7	0.038537	4
0.038614	2.6	0.038614	4.1
0.038691	2.5	0.038691	4.1
0.038768	2.5	0.038768	4.1
0.038845	2.4	0.038845	4.1
0.038922	2.3	0.038922	4.1
0.038998	2.2	0.038998	4.1
0.039075	2	0.039075	4.1
0.039152	1.9	0.039152	4
0.039229	1.8	0.039229	4
0.039306	1.7	0.039306	3.9
0.039383	1.5	0.039383	3.9
0.03946	1.4	0.03946	3.8
0.039537	1.3	0.039537	3.7
0.039614	1.1	0.039614	3.6
0.039691	1	0.039691	3.6
0.039768	0.8	0.039768	3.4
0.039845	0.7	0.039845	3.3
0.039921	0.5	0.039921	3.2
0.039998	0.4	0.039998	3.1
0.040075	0.2	0.040075	3
0.040152	0.1	0.040152	2.8
0.040229	0	0.040229	2.7
0.040306	-0.2	0.040306	2.5
0.040383	-0.3	0.040383	2.4
0.04046	-0.5	0.04046	2.2
0.040537	-0.6	0.040537	2
0.040614	-0.7	0.040614	1.9
0.040691	-0.8	0.040691	1.7
0.040768	-1	0.040768	1.5
0.040845	-1.1	0.040845	1.3
0.040921	-1.2	0.040921	1.1
0.040998	-1.3	0.040998	0.9
0.041075	-1.4	0.041075	0.7
0.041152	-1.5	0.041152	0.5
0.041229	-1.7	0.041229	0.3
0.041306	-1.8	0.041306	0.1
0.041383	-1.9	0.041383	0
0.04146	-2	0.04146	-0.2
0.041537	-2.1	0.041537	-0.4
0.041614	-2.2	0.041614	-0.6
0.041691	-2.3	0.041691	-0.8
0.041768	-2.3	0.041768	-1
0.041844	-2.4	0.041844	-1.2
0.041921	-2.5	0.041921	-1.4
0.041998	-2.6	0.041998	-1.6
0.042075	-2.7	0.042075	-1.7
0.042152	-2.7	0.042152	-1.9
0.042229	-2.8	0.042229	-2.1
0.042306	-2.8	0.042306	-2.3
0.042383	-2.9	0.042383	-2.4
0.04246	-2.9	0.04246	-2.6
0.042537	-3	0.042537	-2.7
0.042614	-3	0.042614	-2.8
0.042691	-3	0.042691	-3
0.042768	-3	0.042768	-3.1
0.042844	-3	0.042844	-3.2
0.042921	-3	0.042921	-3.3
0.042998	-2.9	0.042998	-3.4
0.043075	-2.9	0.043075	-3.5
0.043152	-2.9	0.043152	-3.6
0.043229	-2.8	0.043229	-3.7
0.043306	-2.8	0.043306	-3.8
0.043383	-2.7	0.043383	-3.8
0.04346	-2.7	0.04346	-3.9
0.043537	-2.6	0.043537	-3.9
0.043614	-2.6	0.043614	-3.9
0.043691	-2.5	0.043691	-4
0.043767	-2.4	0.043767	-4
0.043844	-2.3	0.043844	-4
0.043921	-2.2	0.043921	-4
0.043998	-2.1	0.043998	-3.9
0.044075	-2	0.044075	-3.9
0.044152	-1.8	0.044152	-3.9
0.044229	-1.7	0.044229	-3.8
0.044306	-1.6	0.044306	-3.8
0.044383	-1.4	0.044383	-3.7
0.04446	-1.3	0.04446	-3.6
0.044537	-1.2	0.044537	-3.5
0.044614	-1	0.044614	-3.5
0.044691	-0.9	0.044691	-3.4
0.044767	-0.7	0.044767	-3.3
0.044844	-0.6	0.044844	-3.1
0.044921	-0.5	0.044921	-3
0.044998	-0.3	0.044998	-2.9
0.045075	-0.2	0.045075	-2.8
0.045152	0	0.045152	-2.6
0.045229	0.1	0.045229	-2.5
0.045306	0.3	0.045306	-2.3
0.045383	0.4	0.045383	-2.1
0.04546	0.5	0.04546	-2
0.045537	0.7	0.045537	-1.8
0.045614	0.8	0.045614	-1.6
0.04569	0.9	0.04569	-1.4
0.045767	1	0.045767	-1.3
0.045844	1.2	0.045844	-1.1
0.045921	1.3	0.045921	-0.9
0.045998	1.4	0.045998	-0.7
0.046075	1.5	0.046075	-0.5
0.046152	1.6	0.046152	-0.3
0.046229	1.7	0.046229	-0.1
0.046306	1.8	0.046306	0.1
0.046383	1.9	0.046383	0.3
0.04646	2	0.04646	0.5
0.046537	2.1	0.046537	0.7
0.046614	2.2	0.046614	0.9
0.04669	2.3	0.04669	1.1
0.046767	2.4	0.046767	1.2
0.046844	2.5	0.046844	1.4
0.046921	2.6	0.046921	1.6
0.046998	2.6	0.046998	1.8
0.047075	2.7	0.047075	2
0.047152	2.8	0.047152	2.1
0.047229	2.8	0.047229	2.3
0.047306	2.9	0.047306	2.5
0.047383	2.9	0.047383	2.6
0.04746	2.9	0.04746	2.8
