Time [s] - Voltage Capacitor	Voltage [V] - Voltage Capacitor	Time [s] - Voltage Source	Voltage [V] - Voltage Source
0	-1.6	0	4.1
7.69E-05	-1	7.69E-05	4.1
0.000154	-0.5	0.000154	4.1
0.000231	0	0.000231	4.1
0.000308	0.4	0.000308	4.1
0.000385	0.8	0.000385	4.1
0.000462	1.1	0.000462	4.1
0.000538	1.4	0.000538	4.1
0.000615	1.7	0.000615	4.1
0.000692	2	0.000692	4.2
0.000769	2.2	0.000769	4.2
0.000846	2.4	0.000846	4.2
0.000923	2.6	0.000923	4.2
0.001	2.8	0.001	4.2
0.001077	3	0.001077	4.2
0.001154	3.2	0.001154	4.2
0.001231	3.3	0.001231	4.2
0.001308	3.4	0.001308	4.2
0.001385	3.5	0.001385	4.2
0.001461	3.6	0.001461	4.2
0.001538	3.7	0.001538	4.2
0.001615	3.8	0.001615	4.2
0.001692	3.8	0.001692	4.2
0.001769	3.9	0.001769	4.2
0.001846	3.9	0.001846	4.2
0.001923	4	0.001923	4.2
0.002	4	0.002	4.2
0.002077	4	0.002077	4.2
0.002154	4	0.002154	4.2
0.002231	4.1	0.002231	4.2
0.002308	4.1	0.002308	4.2
0.002385	2.9	0.002385	-4.1
0.002461	2	0.002461	-4.1
0.002538	1.3	0.002538	-4.1
0.002615	0.8	0.002615	-4.1
0.002692	0.3	0.002692	-4.1
0.002769	-0.1	0.002769	-4.1
0.002846	-0.5	0.002846	-4.1
0.002923	-0.9	0.002923	-4.1
0.003	-1.2	0.003	-4.1
0.003077	-1.5	0.003077	-4.1
0.003154	-1.8	0.003154	-4.1
0.003231	-2.1	0.003231	-4.1
0.003308	-2.3	0.003308	-4.1
0.003384	-2.5	0.003384	-4.1
0.003461	-2.7	0.003461	-4.1
0.003538	-2.9	0.003538	-4.1
0.003615	-3.1	0.003615	-4.1
0.003692	-3.2	0.003692	-4.1
0.003769	-3.3	0.003769	-4.1
0.003846	-3.4	0.003846	-4.1
0.003923	-3.5	0.003923	-4.1
0.004	-3.6	0.004	-4.1
0.004077	-3.7	0.004077	-4.1
0.004154	-3.8	0.004154	-4.1
0.004231	-3.8	0.004231	-4.1
0.004308	-3.9	0.004308	-4.1
0.004384	-3.9	0.004384	-4.1
0.004461	-3.9	0.004461	-4.1
0.004538	-4	0.004538	-4.1
0.004615	-4	0.004615	-4.1
0.004692	-4	0.004692	-4.1
0.004769	-4	0.004769	-4.1
0.004846	-3.3	0.004846	4.1
0.004923	-2.2	0.004923	4.1
0.005	-1.5	0.005	4.1
0.005077	-0.9	0.005077	4.1
0.005154	-0.4	0.005154	4.1
0.005231	0.1	0.005231	4.1
0.005307	0.5	0.005307	4.1
0.005384	0.9	0.005384	4.1
0.005461	1.2	0.005461	4.1
0.005538	1.5	0.005538	4.1
0.005615	1.8	0.005615	4.1
0.005692	2	0.005692	4.2
0.005769	2.3	0.005769	4.2
0.005846	2.5	0.005846	4.2
0.005923	2.7	0.005923	4.2
0.006	2.9	0.006	4.2
0.006077	3	0.006077	4.2
0.006154	3.2	0.006154	4.2
0.006231	3.3	0.006231	4.2
0.006307	3.4	0.006307	4.2
0.006384	3.6	0.006384	4.2
0.006461	3.6	0.006461	4.2
0.006538	3.7	0.006538	4.2
0.006615	3.8	0.006615	4.2
0.006692	3.8	0.006692	4.2
0.006769	3.9	0.006769	4.2
0.006846	3.9	0.006846	4.2
0.006923	4	0.006923	4.2
0.007	4	0.007	4.2
0.007077	4	0.007077	4.2
0.007154	4.1	0.007154	4.2
0.00723	4.1	0.00723	4.2
0.007307	4	0.007307	-4.1
0.007384	2.7	0.007384	-4.1
0.007461	1.8	0.007461	-4.1
0.007538	1.2	0.007538	-4.1
0.007615	0.6	0.007615	-4.1
0.007692	0.2	0.007692	-4.1
0.007769	-0.2	0.007769	-4.1
0.007846	-0.6	0.007846	-4.1
0.007923	-1	0.007923	-4.1
0.008	-1.3	0.008	-4.1
0.008077	-1.6	0.008077	-4.1
0.008154	-1.9	0.008154	-4.1
0.00823	-2.1	0.00823	-4.1
0.008307	-2.3	0.008307	-4.1
0.008384	-2.6	0.008384	-4.1
0.008461	-2.7	0.008461	-4.1
0.008538	-2.9	0.008538	-4.1
0.008615	-3.1	0.008615	-4.1
0.008692	-3.2	0.008692	-4.1
0.008769	-3.4	0.008769	-4.1
0.008846	-3.5	0.008846	-4.1
0.008923	-3.6	0.008923	-4.1
0.009	-3.6	0.009	-4.1
0.009077	-3.7	0.009077	-4.1
0.009153	-3.8	0.009153	-4.1
0.00923	-3.8	0.00923	-4.1
0.009307	-3.9	0.009307	-4.1
0.009384	-3.9	0.009384	-4.1
0.009461	-3.9	0.009461	-4.1
0.009538	-4	0.009538	-4.1
0.009615	-4	0.009615	-4.1
0.009692	-4	0.009692	-4.1
0.009769	-4	0.009769	-4.1
0.009846	-3	0.009846	4.1
0.009923	-2	0.009923	4.1
0.01	-1.3	0.01	4.1
0.010077	-0.8	0.010077	4.1
0.010153	-0.3	0.010153	4.1
0.01023	0.2	0.01023	4.1
0.010307	0.6	0.010307	4.1
0.010384	0.9	0.010384	4.1
0.010461	1.3	0.010461	4.1
0.010538	1.6	0.010538	4.1
0.010615	1.8	0.010615	4.1
0.010692	2.1	0.010692	4.2
0.010769	2.3	0.010769	4.2
0.010846	2.5	0.010846	4.2
0.010923	2.7	0.010923	4.2
0.011	2.9	0.011	4.2
0.011076	3.1	0.011076	4.2
0.011153	3.2	0.011153	4.2
0.01123	3.4	0.01123	4.2
0.011307	3.5	0.011307	4.2
0.011384	3.6	0.011384	4.2
0.011461	3.7	0.011461	4.2
0.011538	3.7	0.011538	4.2
0.011615	3.8	0.011615	4.2
0.011692	3.9	0.011692	4.2
0.011769	3.9	0.011769	4.2
0.011846	3.9	0.011846	4.2
0.011923	4	0.011923	4.2
0.012	4	0.012	4.2
0.012076	4	0.012076	4.2
0.012153	4.1	0.012153	4.2
0.01223	4.1	0.01223	4.2
0.012307	3.6	0.012307	-4.1
0.012384	2.4	0.012384	-4.1
0.012461	1.7	0.012461	-4.1
0.012538	1	0.012538	-4.1
0.012615	0.5	0.012615	-4.1
0.012692	0.1	0.012692	-4.1
0.012769	-0.3	0.012769	-4.1
0.012846	-0.7	0.012846	-4.1
0.012923	-1.1	0.012923	-4.1
0.012999	-1.4	0.012999	-4.1
0.013076	-1.6	0.013076	-4.1
0.013153	-1.9	0.013153	-4.1
0.01323	-2.2	0.01323	-4.1
0.013307	-2.4	0.013307	-4.1
0.013384	-2.6	0.013384	-4.1
0.013461	-2.8	0.013461	-4.1
0.013538	-3	0.013538	-4.1
0.013615	-3.1	0.013615	-4.1
0.013692	-3.3	0.013692	-4.1
0.013769	-3.4	0.013769	-4.1
0.013846	-3.5	0.013846	-4.1
0.013923	-3.6	0.013923	-4.1
0.013999	-3.7	0.013999	-4.1
0.014076	-3.7	0.014076	-4.1
0.014153	-3.8	0.014153	-4.1
0.01423	-3.8	0.01423	-4.1
0.014307	-3.9	0.014307	-4.1
0.014384	-3.9	0.014384	-4.1
0.014461	-3.9	0.014461	-4.1
0.014538	-4	0.014538	-4.1
0.014615	-4	0.014615	-4.1
0.014692	-4	0.014692	-4.1
0.014769	-4	0.014769	4.1
0.014846	-2.8	0.014846	4.1
0.014922	-1.9	0.014922	4.1
0.014999	-1.2	0.014999	4.1
0.015076	-0.6	0.015076	4.1
0.015153	-0.2	0.015153	4.1
0.01523	0.3	0.01523	4.1
0.015307	0.7	0.015307	4.1
0.015384	1	0.015384	4.1
0.015461	1.3	0.015461	4.1
0.015538	1.6	0.015538	4.1
0.015615	1.9	0.015615	4.2
0.015692	2.1	0.015692	4.2
0.015769	2.4	0.015769	4.2
0.015846	2.6	0.015846	4.2
0.015922	2.8	0.015922	4.2
0.015999	2.9	0.015999	4.2
0.016076	3.1	0.016076	4.2
0.016153	3.3	0.016153	4.2
0.01623	3.4	0.01623	4.2
0.016307	3.5	0.016307	4.2
0.016384	3.6	0.016384	4.2
0.016461	3.7	0.016461	4.2
0.016538	3.8	0.016538	4.2
0.016615	3.8	0.016615	4.2
0.016692	3.9	0.016692	4.2
0.016769	3.9	0.016769	4.2
0.016845	4	0.016845	4.2
0.016922	4	0.016922	4.2
0.016999	4	0.016999	4.2
0.017076	4	0.017076	4.2
0.017153	4.1	0.017153	4.2
0.01723	4.1	0.01723	4.2
0.017307	3.3	0.017307	-4.1
0.017384	2.3	0.017384	-4.1
0.017461	1.5	0.017461	-4.1
0.017538	0.9	0.017538	-4.1
0.017615	0.4	0.017615	-4.1
0.017692	0	0.017692	-4.1
0.017769	-0.4	0.017769	-4.1
0.017845	-0.8	0.017845	-4.1
0.017922	-1.1	0.017922	-4.1
0.017999	-1.4	0.017999	-4.1
0.018076	-1.7	0.018076	-4.1
0.018153	-2	0.018153	-4.1
0.01823	-2.2	0.01823	-4.1
0.018307	-2.4	0.018307	-4.1
0.018384	-2.6	0.018384	-4.1
0.018461	-2.8	0.018461	-4.1
0.018538	-3	0.018538	-4.1
0.018615	-3.1	0.018615	-4.1
0.018692	-3.3	0.018692	-4.1
0.018768	-3.4	0.018768	-4.1
0.018845	-3.5	0.018845	-4.1
0.018922	-3.6	0.018922	-4.1
0.018999	-3.7	0.018999	-4.1
0.019076	-3.7	0.019076	-4.1
0.019153	-3.8	0.019153	-4.1
0.01923	-3.8	0.01923	-4.1
0.019307	-3.9	0.019307	-4.1
0.019384	-3.9	0.019384	-4.1
0.019461	-4	0.019461	-4.1
0.019538	-4	0.019538	-4.1
0.019615	-4	0.019615	-4.1
0.019692	-4	0.019692	-4.1
0.019768	-3.9	0.019768	4.1
0.019845	-2.5	0.019845	4.1
0.019922	-1.7	0.019922	4.1
0.019999	-1.1	0.019999	4.1
0.020076	-0.5	0.020076	4.1
0.020153	-0.1	0.020153	4.1
0.02023	0.4	0.02023	4.1
0.020307	0.7	0.020307	4.1
0.020384	1.1	0.020384	4.1
0.020461	1.4	0.020461	4.1
0.020538	1.7	0.020538	4.1
0.020615	1.9	0.020615	4.2
0.020691	2.2	0.020691	4.2
0.020768	2.4	0.020768	4.2
0.020845	2.6	0.020845	4.2
0.020922	2.8	0.020922	4.2
0.020999	3	0.020999	4.2
0.021076	3.1	0.021076	4.2
0.021153	3.3	0.021153	4.2
0.02123	3.4	0.02123	4.2
0.021307	3.5	0.021307	4.2
0.021384	3.6	0.021384	4.2
0.021461	3.7	0.021461	4.2
0.021538	3.8	0.021538	4.2
0.021615	3.8	0.021615	4.2
0.021691	3.9	0.021691	4.2
0.021768	3.9	0.021768	4.2
0.021845	4	0.021845	4.2
0.021922	4	0.021922	4.2
0.021999	4	0.021999	4.2
0.022076	4	0.022076	4.2
0.022153	4.1	0.022153	4.2
0.02223	4.1	0.02223	4.2
0.022307	3	0.022307	-4.1
0.022384	2.1	0.022384	-4.1
0.022461	1.4	0.022461	-4.1
0.022538	0.8	0.022538	-4.1
0.022614	0.3	0.022614	-4.1
0.022691	-0.1	0.022691	-4.1
0.022768	-0.5	0.022768	-4.1
0.022845	-0.9	0.022845	-4.1
0.022922	-1.2	0.022922	-4.1
0.022999	-1.5	0.022999	-4.1
0.023076	-1.8	0.023076	-4.1
0.023153	-2	0.023153	-4.1
0.02323	-2.3	0.02323	-4.1
0.023307	-2.5	0.023307	-4.1
0.023384	-2.7	0.023384	-4.1
0.023461	-2.9	0.023461	-4.1
0.023538	-3	0.023538	-4.1
0.023614	-3.2	0.023614	-4.1
0.023691	-3.3	0.023691	-4.1
0.023768	-3.4	0.023768	-4.1
0.023845	-3.5	0.023845	-4.1
0.023922	-3.6	0.023922	-4.1
0.023999	-3.7	0.023999	-4.1
0.024076	-3.8	0.024076	-4.1
0.024153	-3.8	0.024153	-4.1
0.02423	-3.9	0.02423	-4.1
0.024307	-3.9	0.024307	-4.1
0.024384	-3.9	0.024384	-4.1
0.024461	-4	0.024461	-4.1
0.024537	-4	0.024537	-4.1
0.024614	-4	0.024614	-4.1
0.024691	-4	0.024691	-4.1
0.024768	-3.5	0.024768	4.1
0.024845	-2.3	0.024845	4.1
0.024922	-1.6	0.024922	4.1
0.024999	-0.9	0.024999	4.1
0.025076	-0.4	0.025076	4.1
0.025153	0	0.025153	4.1
0.02523	0.4	0.02523	4.1
0.025307	0.8	0.025307	4.1
0.025384	1.1	0.025384	4.1
0.025461	1.5	0.025461	4.1
0.025537	1.7	0.025537	4.1
0.025614	2	0.025614	4.2
0.025691	2.2	0.025691	4.2
0.025768	2.5	0.025768	4.2
0.025845	2.7	0.025845	4.2
0.025922	2.8	0.025922	4.2
0.025999	3	0.025999	4.2
0.026076	3.2	0.026076	4.2
0.026153	3.3	0.026153	4.2
0.02623	3.4	0.02623	4.2
0.026307	3.5	0.026307	4.2
0.026384	3.6	0.026384	4.2
0.02646	3.7	0.02646	4.2
0.026537	3.8	0.026537	4.2
0.026614	3.8	0.026614	4.2
0.026691	3.9	0.026691	4.2
0.026768	3.9	0.026768	4.2
0.026845	4	0.026845	4.2
0.026922	4	0.026922	4.2
0.026999	4	0.026999	4.2
0.027076	4	0.027076	4.2
0.027153	4.1	0.027153	4.2
0.02723	4.1	0.02723	-4.1
0.027307	2.8	0.027307	-4.1
0.027384	1.9	0.027384	-4.1
0.02746	1.2	0.02746	-4.1
0.027537	0.7	0.027537	-4.1
0.027614	0.2	0.027614	-4.1
0.027691	-0.2	0.027691	-4.1
0.027768	-0.6	0.027768	-4.1
0.027845	-0.9	0.027845	-4.1
0.027922	-1.3	0.027922	-4.1
0.027999	-1.5	0.027999	-4.1
0.028076	-1.8	0.028076	-4.1
0.028153	-2.1	0.028153	-4.1
0.02823	-2.3	0.02823	-4.1
0.028307	-2.5	0.028307	-4.1
0.028383	-2.7	0.028383	-4.1
0.02846	-2.9	0.02846	-4.1
0.028537	-3.1	0.028537	-4.1
0.028614	-3.2	0.028614	-4.1
0.028691	-3.3	0.028691	-4.1
0.028768	-3.5	0.028768	-4.1
0.028845	-3.5	0.028845	-4.1
0.028922	-3.6	0.028922	-4.1
0.028999	-3.7	0.028999	-4.1
0.029076	-3.8	0.029076	-4.1
0.029153	-3.8	0.029153	-4.1
0.02923	-3.9	0.02923	-4.1
0.029307	-3.9	0.029307	-4.1
0.029383	-3.9	0.029383	-4.1
0.02946	-4	0.02946	-4.1
0.029537	-4	0.029537	-4.1
0.029614	-4	0.029614	-4.1
0.029691	-4	0.029691	-4.1
0.029768	-3.2	0.029768	4.1
0.029845	-2.1	0.029845	4.1
0.029922	-1.4	0.029922	4.1
0.029999	-0.8	0.029999	4.1
0.030076	-0.3	0.030076	4.1
0.030153	0.1	0.030153	4.1
0.03023	0.5	0.03023	4.1
0.030306	0.9	0.030306	4.1
0.030383	1.2	0.030383	4.1
0.03046	1.5	0.03046	4.1
0.030537	1.8	0.030537	4.1
0.030614	2	0.030614	4.2
0.030691	2.3	0.030691	4.2
0.030768	2.5	0.030768	4.2
0.030845	2.7	0.030845	4.2
0.030922	2.9	0.030922	4.2
0.030999	3.1	0.030999	4.2
0.031076	3.2	0.031076	4.2
0.031153	3.3	0.031153	4.2
0.03123	3.5	0.03123	4.2
0.031306	3.6	0.031306	4.2
0.031383	3.7	0.031383	4.2
0.03146	3.7	0.03146	4.2
0.031537	3.8	0.031537	4.2
0.031614	3.9	0.031614	4.2
0.031691	3.9	0.031691	4.2
0.031768	3.9	0.031768	4.2
0.031845	4	0.031845	4.2
0.031922	4	0.031922	4.2
0.031999	4	0.031999	4.2
0.032076	4.1	0.032076	4.2
0.032153	4.1	0.032153	4.2
0.032229	3.9	0.032229	-4.1
0.032306	2.6	0.032306	-4.1
0.032383	1.7	0.032383	-4.1
0.03246	1.1	0.03246	-4.1
0.032537	0.6	0.032537	-4.1
0.032614	0.1	0.032614	-4.1
0.032691	-0.3	0.032691	-4.1
0.032768	-0.7	0.032768	-4.1
0.032845	-1	0.032845	-4.1
0.032922	-1.3	0.032922	-4.1
0.032999	-1.6	0.032999	-4.1
0.033076	-1.9	0.033076	-4.1
0.033153	-2.1	0.033153	-4.1
0.033229	-2.4	0.033229	-4.1
0.033306	-2.6	0.033306	-4.1
0.033383	-2.8	0.033383	-4.1
0.03346	-2.9	0.03346	-4.1
0.033537	-3.1	0.033537	-4.1
0.033614	-3.2	0.033614	-4.1
0.033691	-3.4	0.033691	-4.1
0.033768	-3.5	0.033768	-4.1
0.033845	-3.6	0.033845	-4.1
0.033922	-3.6	0.033922	-4.1
0.033999	-3.7	0.033999	-4.1
0.034076	-3.8	0.034076	-4.1
0.034152	-3.8	0.034152	-4.1
0.034229	-3.9	0.034229	-4.1
0.034306	-3.9	0.034306	-4.1
0.034383	-3.9	0.034383	-4.1
0.03446	-4	0.03446	-4.1
0.034537	-4	0.034537	-4.1
0.034614	-4	0.034614	-4.1
0.034691	-4	0.034691	-4.1
0.034768	-2.9	0.034768	4.1
0.034845	-2	0.034845	4.1
0.034922	-1.3	0.034922	4.1
0.034999	-0.7	0.034999	4.1
0.035076	-0.2	0.035076	4.1
0.035152	0.2	0.035152	4.1
0.035229	0.6	0.035229	4.1
0.035306	1	0.035306	4.1
0.035383	1.3	0.035383	4.1
0.03546	1.6	0.03546	4.1
0.035537	1.8	0.035537	4.2
0.035614	2.1	0.035614	4.2
0.035691	2.3	0.035691	4.2
0.035768	2.5	0.035768	4.2
0.035845	2.7	0.035845	4.2
0.035922	2.9	0.035922	4.2
0.035999	3.1	0.035999	4.2
0.036075	3.2	0.036075	4.2
0.036152	3.4	0.036152	4.2
0.036229	3.5	0.036229	4.2
0.036306	3.6	0.036306	4.2
0.036383	3.7	0.036383	4.2
0.03646	3.7	0.03646	4.2
0.036537	3.8	0.036537	4.2
0.036614	3.9	0.036614	4.2
0.036691	3.9	0.036691	4.2
0.036768	4	0.036768	4.2
0.036845	4	0.036845	4.2
0.036922	4	0.036922	4.2
0.036999	4	0.036999	4.2
0.037075	4.1	0.037075	4.2
0.037152	4.1	0.037152	4.2
0.037229	3.5	0.037229	-4.1
0.037306	2.4	0.037306	-4.1
0.037383	1.6	0.037383	-4.1
0.03746	1	0.03746	-4.1
0.037537	0.5	0.037537	-4.1
0.037614	0.1	0.037614	-4.1
0.037691	-0.4	0.037691	-4.1
0.037768	-0.7	0.037768	-4.1
0.037845	-1.1	0.037845	-4.1
0.037922	-1.4	0.037922	-4.1
0.037998	-1.7	0.037998	-4.1
0.038075	-1.9	0.038075	-4.1
0.038152	-2.2	0.038152	-4.1
0.038229	-2.4	0.038229	-4.1
0.038306	-2.6	0.038306	-4.1
0.038383	-2.8	0.038383	-4.1
0.03846	-3	0.03846	-4.1
0.038537	-3.1	0.038537	-4.1
0.038614	-3.3	0.038614	-4.1
0.038691	-3.4	0.038691	-4.1
0.038768	-3.5	0.038768	-4.1
0.038845	-3.6	0.038845	-4.1
0.038922	-3.7	0.038922	-4.1
0.038998	-3.7	0.038998	-4.1
0.039075	-3.8	0.039075	-4.1
0.039152	-3.8	0.039152	-4.1
0.039229	-3.9	0.039229	-4.1
0.039306	-3.9	0.039306	-4.1
0.039383	-3.9	0.039383	-4.1
0.03946	-4	0.03946	-4.1
0.039537	-4	0.039537	-4.1
0.039614	-4	0.039614	-4.1
0.039691	-4	0.039691	4.1
0.039768	-2.7	0.039768	4.1
0.039845	-1.8	0.039845	4.1
0.039921	-1.1	0.039921	4.1
